2019/05/23	13:12
Amplitude: 0.10 V
Freq  (Hz) 	 Gain (dB)  	 Phase (deg)
  0.931            -12.013            -91.732
  1.304             -9.127            -92.989
  1.676             -6.938            -93.199
  2.049             -5.203            -93.805
  2.421             -3.776            -94.172
  3.166             -1.471            -95.289
  3.912              0.348            -96.535
  5.029              2.478            -98.034
  6.333              4.428            -100.120
  8.009              6.385            -102.494
 10.058              8.251            -105.552
 12.666             10.074            -109.147
 15.832             11.755            -113.364
 19.930             13.382            -118.332
 25.146             14.858            -124.267
 31.665             16.125            -130.562
 39.861             17.173            -137.082
 50.105             17.993            -143.431
 63.144             18.613            -149.470
 79.349             19.040            -154.899
100.024             19.335            -159.662
125.915             19.524            -163.590
158.511             19.648            -166.921
199.489             19.731            -169.615
251.271             19.790            -171.871
316.277             19.824            -173.556
398.047             19.849            -174.930
501.238             19.862            -176.183
630.878             19.874            -177.148
794.418             19.874            -177.972
1000.054             19.882            -178.687
1258.962             19.884            -179.322
1584.925             19.885            180.012
1995.265             19.886            179.333
2511.963             19.884            178.804
3162.213             19.885            178.070
3981.031             19.874            177.230
5011.819             19.869            176.235
6309.524             19.861            175.071
7943.250             19.842            173.633
9999.983             19.809            171.886
12589.246             19.769            169.739
15848.875             19.696            166.995
19952.655             19.590            163.628
25118.887             19.416            159.458
31622.685             19.147            154.324
39810.687             18.739            148.303
50118.752             18.141            141.138
63095.801             17.300            133.251
79432.875             16.193            124.903
100000.016             14.828            116.819
125892.460             13.258            108.130
158489.309             11.521            100.298
199526.176              9.654             92.714
