2019/05/23	13:07
Amplitude: 0.10 V
Freq  (Hz) 	 Gain (dB)  	 Phase (deg)
  0.931            -11.998            -95.641
  1.304             -9.029            -92.332
  1.676             -6.910            -90.166
  2.049             -5.176            -91.895
  2.421             -3.734            -90.842
  3.166             -1.425            -90.638
  3.912              0.407            -91.364
  5.029              2.592            -90.629
  6.333              4.582            -90.183
  8.009              6.610            -90.698
 10.058              8.586            -90.739
 12.666             10.578            -90.523
 15.832             12.507            -90.565
 19.930             14.499            -90.679
 25.146             16.511            -90.631
 31.665             18.504            -90.782
 39.861             20.498            -90.900
 50.105             22.480            -90.948
 63.144             24.481            -91.270
 79.349             26.460            -91.555
100.024             28.477            -92.047
125.915             30.479            -92.824
158.511             32.485            -93.807
199.489             34.511            -94.694
251.271             36.561            -95.708
316.277             38.641            -97.150
398.047             40.741            -99.242
501.238             41.956            -109.255
630.878             42.002            -120.928
794.418             42.306            -145.150
1000.054             42.811            -160.913
1258.962             43.563            -175.677
1584.925             44.200            168.286
1995.265             44.445            150.488
2511.963             44.161            133.931
3162.213             43.726            120.596
3981.031             43.476            104.976
5011.819             42.244            102.450
6309.524             40.632             99.041
7943.250             38.549             96.864
9999.983             36.491             95.344
12589.246             34.469             94.212
15848.875             32.448             93.211
19952.655             30.445             92.325
